Spectral Radiance calculated by Planck's Radiation Law and its 
low frequency approximation at a temperature of T = 2.73 K.

NB: Spectral Radiance and LF Approx. have units W.m^-2.Hz^-1.sr^-1
Frequency (GHz)      Spectral Radiance    Low Freq. Approx.    
1.00000e-09          8.38765e-40          8.38763e-40          
2.00401e-02          3.36792e-25          3.36851e-25          
4.00802e-02          1.34693e-24          1.34741e-24          
6.01202e-02          3.03006e-24          3.03166e-24          
8.01603e-02          5.38582e-24          5.38962e-24          
1.00200e-01          8.41387e-24          8.42128e-24          
1.20240e-01          1.21138e-23          1.21266e-23          
1.40281e-01          1.64854e-23          1.65057e-23          
1.60321e-01          2.15281e-23          2.15585e-23          
1.80361e-01          2.72417e-23          2.72850e-23          
2.00401e-01          3.36258e-23          3.36851e-23          
2.20441e-01          4.06801e-23          4.07590e-23          
2.40481e-01          4.84041e-23          4.85066e-23          
2.60521e-01          5.67976e-23          5.69279e-23          
2.80561e-01          6.58602e-23          6.60229e-23          
3.00601e-01          7.55915e-23          7.57915e-23          
3.20641e-01          8.59911e-23          8.62339e-23          
3.40681e-01          9.70588e-23          9.73500e-23          
3.60721e-01          1.08794e-22          1.09140e-22          
3.80762e-01          1.21197e-22          1.21603e-22          
4.00802e-01          1.34266e-22          1.34741e-22          
4.20842e-01          1.48003e-22          1.48551e-22          
4.40882e-01          1.62405e-22          1.63036e-22          
4.60922e-01          1.77473e-22          1.78194e-22          
4.80962e-01          1.93207e-22          1.94026e-22          
5.01002e-01          2.09606e-22          2.10532e-22          
5.21042e-01          2.26670e-22          2.27711e-22          
5.41082e-01          2.44399e-22          2.45565e-22          
5.61122e-01          2.62791e-22          2.64091e-22          
5.81162e-01          2.81847e-22          2.83292e-22          
6.01202e-01          3.01567e-22          3.03166e-22          
6.21242e-01          3.21950e-22          3.23714e-22          
6.41283e-01          3.42995e-22          3.44936e-22          
6.61323e-01          3.64703e-22          3.66831e-22          
6.81363e-01          3.87073e-22          3.89400e-22          
7.01403e-01          4.10104e-22          4.12643e-22          
7.21443e-01          4.33797e-22          4.36559e-22          
7.41483e-01          4.58150e-22          4.61149e-22          
7.61523e-01          4.83165e-22          4.86413e-22          
7.81563e-01          5.08839e-22          5.12351e-22          
8.01603e-01          5.35174e-22          5.38962e-22          
8.21643e-01          5.62167e-22          5.66247e-22          
8.41683e-01          5.89820e-22          5.94206e-22          
8.61723e-01          6.18132e-22          6.22838e-22          
8.81764e-01          6.47103e-22          6.52144e-22          
9.01804e-01          6.76731e-22          6.82124e-22          
9.21844e-01          7.07017e-22          7.12777e-22          
9.41884e-01          7.37961e-22          7.44105e-22          
9.61924e-01          7.69562e-22          7.76105e-22          
9.81964e-01          8.01819e-22          8.08780e-22          
1.00200e+00          8.34733e-22          8.42128e-22          
1.02204e+00          8.68303e-22          8.76150e-22          
1.04208e+00          9.02528e-22          9.10846e-22          
1.06212e+00          9.37409e-22          9.46215e-22          
1.08216e+00          9.72945e-22          9.82258e-22          
1.10220e+00          1.00914e-21          1.01898e-21          
1.12224e+00          1.04598e-21          1.05637e-21          
1.14228e+00          1.08348e-21          1.09443e-21          
1.16232e+00          1.12163e-21          1.13317e-21          
1.18236e+00          1.16044e-21          1.17258e-21          
1.20240e+00          1.19989e-21          1.21266e-21          
1.22244e+00          1.24000e-21          1.25342e-21          
1.24248e+00          1.28077e-21          1.29486e-21          
1.26253e+00          1.32218e-21          1.33696e-21          
1.28257e+00          1.36425e-21          1.37974e-21          
1.30261e+00          1.40696e-21          1.42320e-21          
1.32265e+00          1.45033e-21          1.46732e-21          
1.34269e+00          1.49435e-21          1.51213e-21          
1.36273e+00          1.53902e-21          1.55760e-21          
1.38277e+00          1.58434e-21          1.60375e-21          
1.40281e+00          1.63030e-21          1.65057e-21          
1.42285e+00          1.67692e-21          1.69807e-21          
1.44289e+00          1.72418e-21          1.74624e-21          
1.46293e+00          1.77210e-21          1.79508e-21          
1.48297e+00          1.82066e-21          1.84460e-21          
1.50301e+00          1.86987e-21          1.89479e-21          
1.52305e+00          1.91972e-21          1.94565e-21          
1.54309e+00          1.97023e-21          1.99719e-21          
1.56313e+00          2.02137e-21          2.04940e-21          
1.58317e+00          2.07317e-21          2.10229e-21          
1.60321e+00          2.12561e-21          2.15585e-21          
1.62325e+00          2.17870e-21          2.21008e-21          
1.64329e+00          2.23243e-21          2.26499e-21          
1.66333e+00          2.28681e-21          2.32057e-21          
1.68337e+00          2.34183e-21          2.37682e-21          
1.70341e+00          2.39749e-21          2.43375e-21          
1.72345e+00          2.45380e-21          2.49135e-21          
1.74349e+00          2.51075e-21          2.54963e-21          
1.76353e+00          2.56835e-21          2.60858e-21          
1.78357e+00          2.62659e-21          2.66820e-21          
1.80361e+00          2.68547e-21          2.72850e-21          
1.82365e+00          2.74499e-21          2.78947e-21          
1.84369e+00          2.80516e-21          2.85111e-21          
1.86373e+00          2.86596e-21          2.91343e-21          
1.88377e+00          2.92741e-21          2.97642e-21          
1.90381e+00          2.98949e-21          3.04008e-21          
1.92385e+00          3.05222e-21          3.10442e-21          
1.94389e+00          3.11559e-21          3.16943e-21          
1.96393e+00          3.17959e-21          3.23512e-21          
1.98397e+00          3.24424e-21          3.30148e-21          
2.00401e+00          3.30953e-21          3.36851e-21          
2.02405e+00          3.37545e-21          3.43622e-21          
2.04409e+00          3.44201e-21          3.50460e-21          
2.06413e+00          3.50921e-21          3.57366e-21          
2.08417e+00          3.57705e-21          3.64338e-21          
2.10421e+00          3.64552e-21          3.71379e-21          
2.12425e+00          3.71463e-21          3.78486e-21          
2.14429e+00          3.78438e-21          3.85661e-21          
2.16433e+00          3.85476e-21          3.92903e-21          
2.18437e+00          3.92578e-21          4.00213e-21          
2.20441e+00          3.99744e-21          4.07590e-21          
2.22445e+00          4.06972e-21          4.15034e-21          
2.24449e+00          4.14265e-21          4.22546e-21          
2.26453e+00          4.21621e-21          4.30125e-21          
2.28457e+00          4.29040e-21          4.37772e-21          
2.30461e+00          4.36523e-21          4.45486e-21          
2.32465e+00          4.44069e-21          4.53267e-21          
2.34469e+00          4.51678e-21          4.61116e-21          
2.36473e+00          4.59350e-21          4.69032e-21          
2.38477e+00          4.67086e-21          4.77015e-21          
2.40481e+00          4.74885e-21          4.85066e-21          
2.42485e+00          4.82747e-21          4.93184e-21          
2.44489e+00          4.90672e-21          5.01369e-21          
2.46493e+00          4.98661e-21          5.09622e-21          
2.48497e+00          5.06712e-21          5.17943e-21          
2.50501e+00          5.14826e-21          5.26330e-21          
2.52505e+00          5.23004e-21          5.34785e-21          
2.54509e+00          5.31244e-21          5.43307e-21          
2.56513e+00          5.39547e-21          5.51897e-21          
2.58517e+00          5.47913e-21          5.60554e-21          
2.60521e+00          5.56342e-21          5.69279e-21          
2.62525e+00          5.64834e-21          5.78070e-21          
2.64529e+00          5.73388e-21          5.86930e-21          
2.66533e+00          5.82006e-21          5.95856e-21          
2.68537e+00          5.90686e-21          6.04850e-21          
2.70541e+00          5.99428e-21          6.13911e-21          
2.72545e+00          6.08234e-21          6.23040e-21          
2.74549e+00          6.17102e-21          6.32236e-21          
2.76553e+00          6.26032e-21          6.41500e-21          
2.78557e+00          6.35025e-21          6.50830e-21          
2.80561e+00          6.44081e-21          6.60229e-21          
2.82565e+00          6.53199e-21          6.69694e-21          
2.84569e+00          6.62379e-21          6.79227e-21          
2.86573e+00          6.71622e-21          6.88827e-21          
2.88577e+00          6.80927e-21          6.98495e-21          
2.90581e+00          6.90295e-21          7.08230e-21          
2.92585e+00          6.99724e-21          7.18032e-21          
2.94589e+00          7.09217e-21          7.27902e-21          
2.96593e+00          7.18771e-21          7.37839e-21          
2.98597e+00          7.28387e-21          7.47844e-21          
3.00601e+00          7.38066e-21          7.57915e-21          
3.02605e+00          7.47807e-21          7.68055e-21          
3.04609e+00          7.57610e-21          7.78261e-21          
3.06613e+00          7.67475e-21          7.88535e-21          
3.08617e+00          7.77402e-21          7.98877e-21          
3.10621e+00          7.87390e-21          8.09285e-21          
3.12625e+00          7.97441e-21          8.19761e-21          
3.14629e+00          8.07554e-21          8.30305e-21          
3.16633e+00          8.17729e-21          8.40916e-21          
3.18637e+00          8.27965e-21          8.51594e-21          
3.20641e+00          8.38264e-21          8.62339e-21          
3.22645e+00          8.48624e-21          8.73152e-21          
3.24649e+00          8.59046e-21          8.84033e-21          
3.26653e+00          8.69529e-21          8.94980e-21          
3.28657e+00          8.80075e-21          9.05995e-21          
3.30661e+00          8.90682e-21          9.17078e-21          
3.32665e+00          9.01350e-21          9.28227e-21          
3.34669e+00          9.12080e-21          9.39445e-21          
3.36673e+00          9.22872e-21          9.50729e-21          
3.38677e+00          9.33725e-21          9.62081e-21          
3.40681e+00          9.44640e-21          9.73500e-21          
3.42685e+00          9.55616e-21          9.84987e-21          
3.44689e+00          9.66653e-21          9.96541e-21          
3.46693e+00          9.77752e-21          1.00816e-20          
3.48697e+00          9.88912e-21          1.01985e-20          
3.50701e+00          1.00013e-20          1.03161e-20          
3.52705e+00          1.01142e-20          1.04343e-20          
3.54709e+00          1.02276e-20          1.05532e-20          
3.56713e+00          1.03417e-20          1.06728e-20          
3.58717e+00          1.04563e-20          1.07931e-20          
3.60721e+00          1.05716e-20          1.09140e-20          
3.62725e+00          1.06875e-20          1.10356e-20          
3.64729e+00          1.08040e-20          1.11579e-20          
3.66733e+00          1.09211e-20          1.12808e-20          
3.68737e+00          1.10388e-20          1.14044e-20          
3.70741e+00          1.11571e-20          1.15287e-20          
3.72745e+00          1.12761e-20          1.16537e-20          
3.74749e+00          1.13956e-20          1.17794e-20          
3.76754e+00          1.15158e-20          1.19057e-20          
3.78758e+00          1.16365e-20          1.20327e-20          
3.80762e+00          1.17579e-20          1.21603e-20          
3.82766e+00          1.18799e-20          1.22887e-20          
3.84770e+00          1.20024e-20          1.24177e-20          
3.86774e+00          1.21256e-20          1.25474e-20          
3.88778e+00          1.22494e-20          1.26777e-20          
3.90782e+00          1.23738e-20          1.28088e-20          
3.92786e+00          1.24989e-20          1.29405e-20          
3.94790e+00          1.26245e-20          1.30729e-20          
3.96794e+00          1.27507e-20          1.32059e-20          
3.98798e+00          1.28775e-20          1.33396e-20          
4.00802e+00          1.30049e-20          1.34741e-20          
4.02806e+00          1.31330e-20          1.36091e-20          
4.04810e+00          1.32616e-20          1.37449e-20          
4.06814e+00          1.33909e-20          1.38813e-20          
4.08818e+00          1.35207e-20          1.40184e-20          
4.10822e+00          1.36511e-20          1.41562e-20          
4.12826e+00          1.37822e-20          1.42946e-20          
4.14830e+00          1.39138e-20          1.44337e-20          
4.16834e+00          1.40461e-20          1.45735e-20          
4.18838e+00          1.41790e-20          1.47140e-20          
4.20842e+00          1.43124e-20          1.48551e-20          
4.22846e+00          1.44465e-20          1.49970e-20          
4.24850e+00          1.45811e-20          1.51394e-20          
4.26854e+00          1.47164e-20          1.52826e-20          
4.28858e+00          1.48522e-20          1.54264e-20          
4.30862e+00          1.49887e-20          1.55710e-20          
4.32866e+00          1.51258e-20          1.57161e-20          
4.34870e+00          1.52634e-20          1.58620e-20          
4.36874e+00          1.54017e-20          1.60085e-20          
4.38878e+00          1.55405e-20          1.61557e-20          
4.40882e+00          1.56800e-20          1.63036e-20          
4.42886e+00          1.58200e-20          1.64522e-20          
4.44890e+00          1.59606e-20          1.66014e-20          
4.46894e+00          1.61019e-20          1.67513e-20          
4.48898e+00          1.62437e-20          1.69019e-20          
4.50902e+00          1.63862e-20          1.70531e-20          
4.52906e+00          1.65292e-20          1.72050e-20          
4.54910e+00          1.66728e-20          1.73576e-20          
4.56914e+00          1.68170e-20          1.75109e-20          
4.58918e+00          1.69618e-20          1.76648e-20          
4.60922e+00          1.71072e-20          1.78194e-20          
4.62926e+00          1.72532e-20          1.79747e-20          
4.64930e+00          1.73998e-20          1.81307e-20          
4.66934e+00          1.75470e-20          1.82873e-20          
4.68938e+00          1.76948e-20          1.84446e-20          
4.70942e+00          1.78432e-20          1.86026e-20          
4.72946e+00          1.79922e-20          1.87613e-20          
4.74950e+00          1.81417e-20          1.89206e-20          
4.76954e+00          1.82919e-20          1.90806e-20          
4.78958e+00          1.84426e-20          1.92413e-20          
4.80962e+00          1.85939e-20          1.94026e-20          
4.82966e+00          1.87459e-20          1.95647e-20          
4.84970e+00          1.88984e-20          1.97274e-20          
4.86974e+00          1.90515e-20          1.98907e-20          
4.88978e+00          1.92052e-20          2.00548e-20          
4.90982e+00          1.93595e-20          2.02195e-20          
4.92986e+00          1.95143e-20          2.03849e-20          
4.94990e+00          1.96698e-20          2.05510e-20          
4.96994e+00          1.98258e-20          2.07177e-20          
4.98998e+00          1.99825e-20          2.08851e-20          
5.01002e+00          2.01397e-20          2.10532e-20          
5.03006e+00          2.02975e-20          2.12220e-20          
5.05010e+00          2.04559e-20          2.13914e-20          
5.07014e+00          2.06149e-20          2.15615e-20          
5.09018e+00          2.07745e-20          2.17323e-20          
5.11022e+00          2.09346e-20          2.19038e-20          
5.13026e+00          2.10954e-20          2.20759e-20          
5.15030e+00          2.12567e-20          2.22487e-20          
5.17034e+00          2.14186e-20          2.24222e-20          
5.19038e+00          2.15811e-20          2.25963e-20          
5.21042e+00          2.17442e-20          2.27711e-20          
5.23046e+00          2.19079e-20          2.29466e-20          
5.25050e+00          2.20721e-20          2.31228e-20          
5.27054e+00          2.22369e-20          2.32997e-20          
5.29058e+00          2.24023e-20          2.34772e-20          
5.31062e+00          2.25683e-20          2.36554e-20          
5.33066e+00          2.27349e-20          2.38342e-20          
5.35070e+00          2.29021e-20          2.40138e-20          
5.37074e+00          2.30698e-20          2.41940e-20          
5.39078e+00          2.32382e-20          2.43749e-20          
5.41082e+00          2.34071e-20          2.45565e-20          
5.43086e+00          2.35766e-20          2.47387e-20          
5.45090e+00          2.37466e-20          2.49216e-20          
5.47094e+00          2.39173e-20          2.51052e-20          
5.49098e+00          2.40885e-20          2.52894e-20          
5.51102e+00          2.42603e-20          2.54744e-20          
5.53106e+00          2.44327e-20          2.56600e-20          
5.55110e+00          2.46057e-20          2.58463e-20          
5.57114e+00          2.47792e-20          2.60332e-20          
5.59118e+00          2.49533e-20          2.62208e-20          
5.61122e+00          2.51280e-20          2.64091e-20          
5.63126e+00          2.53033e-20          2.65981e-20          
5.65130e+00          2.54791e-20          2.67878e-20          
5.67134e+00          2.56556e-20          2.69781e-20          
5.69138e+00          2.58326e-20          2.71691e-20          
5.71142e+00          2.60102e-20          2.73607e-20          
5.73146e+00          2.61883e-20          2.75531e-20          
5.75150e+00          2.63671e-20          2.77461e-20          
5.77154e+00          2.65464e-20          2.79398e-20          
5.79158e+00          2.67262e-20          2.81342e-20          
5.81162e+00          2.69067e-20          2.83292e-20          
5.83166e+00          2.70877e-20          2.85249e-20          
5.85170e+00          2.72693e-20          2.87213e-20          
5.87174e+00          2.74515e-20          2.89183e-20          
5.89178e+00          2.76343e-20          2.91161e-20          
5.91182e+00          2.78176e-20          2.93145e-20          
5.93186e+00          2.80015e-20          2.95136e-20          
5.95190e+00          2.81859e-20          2.97133e-20          
5.97194e+00          2.83710e-20          2.99137e-20          
5.99198e+00          2.85566e-20          3.01148e-20          
6.01202e+00          2.87428e-20          3.03166e-20          
6.03206e+00          2.89295e-20          3.05191e-20          
6.05210e+00          2.91168e-20          3.07222e-20          
